8
15
22
27
33
37
40
43
44
45
45
45
44
43
41
40
38
36
34
33
32
32
32
33
34
35
36
37
38
39
40
40
41
41
42
42
41
41
40
39
39
39
41
43
46
50
53
56
57
57
55
51
47
42
39
36
36
38
42
47
52
56
59
61
62
61
60
58
57
56
56
56
57
58
58
59
59
60
61
63
66
70
75
80
84
87
88
88
86
83
80
78
77
79
83
88
93
98
100
100
98
94
89
85
83
82
84
88
92
95
96
94
90
83
76
70
65
62
61
62
63
63
62
60
55
50
46
42
40
40
42
44
46
46
46
44
41
38
35
33
31
31
31
31
31
30
30
29
28
28
29
31
32
34
34
33
31
28
25
23
23
24
26
30
34
37
38
37
35
31
27
24
22
22
24
27
30
32
33
32
30
27
25
23
23
25
28
31
34
36
36
35
32
28
25
24
24
26
30
33
36
38
38
37
34
30
26
23
22
21
22
24
25
27
28
29
29
29
30
30
30
31
30
29
27
25
23
21
20
20
21
23
25
28
29
30
29
27
25
23
21
20
21
22
24
26
28
30
30
30
29
27
25
23
22
20
20
20
20
20
21
21
22
22
22
22
22
22
22
22
22
23
23
24
25
26
27
27
28
28
28
28
28
28
27
27
27
27
27
27
27
25
24
22
21
21
21
23
25
29
34
38
42
45
46
46
44
41
38
35
33
33
33
35
37
39
40
40
38
35
31
26
23
20
19
20
22
25
29
32
33
34
33
30
28
25
24
23
22
22
22
21
20
17
15
12
10
10
11
13
17
20
23
25
25
24
23
21
19
18
18
18
19
20
20
19
17
15
14
13
15
19
26
36
48
63
79
96
115
133
151
166
178
184
183
175
159
136
110
82
55
32
15
6
2
4
9
14
18
20
20
18
16
13
13
15
18
22
27
30
31
30
27
23
20
17
17
19
24
29
34
39
41
41
39
36
32
27
24
23
23
25
28
31
34
36
37
36
35
33
31
30
31
32
34
37
40
43
44
44
43
41
40
39
39
40
43
46
49
52
54
55
54
52
50
49
48
48
49
51
53
55
56
57
57
58
59
61
65
69
74
79
83
86
86
86
84
81
79
78
78
79
80
81
82
81
79
76
73
70
68
67
67
67
68
69
70
70
68
67
64
62
60
57
55
53
50
48
45
43
41
39
37
36
34
33
31
29
27
25
23
21
21
21
22
24
25
26
26
25
24
23
23
23
25
28
31
34
36
36
35
33
29
25
22
19
17
17
19
21
23
26
28
29
30
30
30
29
29
29
28
28
28
29
29
29
29
29
29
30
30
31
33
34
36
37
38
38
38
36
34
31
28
26
24
24
25
27
30
32
34
35
35
34
33
32
31
31
32
32
32
31
29
26
22
19
17
17
18
21
25
29
33
35
37
36
34
31
28
26
25
25
26
27
28
30
30
29
27
25
23
20
19
18
18
20
22
25
28
31
33
34
35
34
32
30
27
25
23
22
22
23
25
26
27
28
28
27
25
24
22
22
22
24
26
28
31
32
33
33
33
31
30
29
28
28
29
30
32
34
36
37
39
40
41
41
42
42
41
40
40
39
38
38
38
38
38
37
36
34
31
29
26
23
21
20
20
21
22
23
24
25
26
26
27
27
27
27
26
26
24
23
22
22
23
24
26
29
31
33
33
32
30
28
26
24
22
22
21
21
21
20
18
16
14
12
12
12
14
17
21
27
34
42
53
67
84
103
125
147
167
184
194
197
191
177
156
130
102
75
50
30
16
8
5
6
9
14
19
23
25
26
26
26
25
25
26
28
30
32
33
33
33
31
29
27
25
25
26
28
32
36
39
42
43
42
40
37
35
33
32
33
35
37
39
40
41
40
38
36
35
34
34
35
36
37
38
39
39
39
39
39
40
42
45
48
51
53
54
54
53
52
51
50
51
52
54
57
59
61
62
62
62
61
60
60
61
63
67
72
76
80
83
84
83
82
79
77
76
75
76
78
81
84
86
87
88
87
86
85
84
83
83
82
80
78
74
70
66
62
58
55
53
52
50
49
48
46
44
43
41
40
40
40
40
40
41
41
40
40
39
38
37
36
34
32
30
28
27
26
26
27
29
31
32
32
31
29
26
22
20
19
20
22
27
32
36
40
41
40
37
34
30
27
26
26
28
30
32
34
34
33
30
27
24
22
22
22
25
28
32
36
39
41
41
39
37
35
32
30
29
29
30
32
34
36
38
38
38
37
35
32
30
28
26
26
26
27
29
31
32
33
33
33
32
31
31
31
31
32
32
32
32
31
29
28
27
27
29
31
33
35
37
37
35
32
29
25
23
22
23
24
27
30
31
32
31
30
28
28
28
29
31
34
36
36
35
33
29
26
23
22
22
25
28
31
33
33
32
28
24
21
18
17
18
20
23
26
28
28
27
26
25
24
25
27
30
34
36
38
37
36
33
30
28
27
28
30
33
36
39
40
41
40
39
37
35
34
34
34
34
34
35
35
35
35
35
35
35
35
34
32
30
27
25
22
21
22
23
25
27
28
28
27
25
22
19
16
16
18
21
25
29
32
33
31
27
22
15
10
6
4
5
9
14
20
25
29
30
29
26
22
18
13
10
9
9
12
15
20
27
35
44
56
69
84
102
120
138
155
170
180
184
182
173
157
136
112
87
63
43
27
16
11
10
12
16
20
24
27
29
31
32
32
33
34
34
33
31
29
26
23
21
20
21
23
26
29
31
33
33
33
32
31
31
32
33
35
36
37
37
35
33
30
28
28
29
31
36
40
45
48
49
48
46
41
37
33
30
29
29
32
36
40
45
49
52
55
56
56
54
53
50
48
46
45
45
46
49
53
57
61
64
66
66
66
65
65
65
66
69
72
75
78
79
80
79
78
78
78
79
81
84
88
91
92
91
88
84
78
73
69
67
66
66
68
69
70
69
67
63
59
53
48
44
40
38
37
37
38
39
40
41
42
42
41
40
38
36
34
32
30
28
27
27
26
25
24
23
22
21
21
21
23
24
26
28
29
29
28
26
25
23
22
22
23
24
26
27
28
28
27
26
25
25
25
26
28
29
30
30
30
29
27
25
23
22
21
22
23
25
27
29
31
33
34
34
34
33
31
30
29
29
29
29
31
32
34
36
37
37
36
34
31
28
25
23
22
22
23
24
26
27
29
30
30
29
29
28
27
27
28
29
30
31
32
33
32
31
29
26
24
22
21
22
23
26
29
31
33
34
33
31
28
24
21
19
19
19
21
25
28
31
33
34
33
30
27
23
19
16
14
15
17
21
25
29
32
34
33
32
28
25
22
20
19
20
22
25
28
31
32
33
32
31
29
27
25
24
24
24
25
26
26
27
27
28
28
29
29
31
32
34
36
38
39
41
42
43
43
43
44
43
43
42
40
38
35
32
28
25
22
20
18
18
18
18
19
20
20
21
22
24
25
27
29
31
31
31
30
28
25
23
20
18
18
18
20
21
23
23
23
22
21
20
19
19
20
22
24
25
26
25
22
18
14
10
8
8
10
15
23
33
47
62
79
97
117
137
155
172
185
192
193
187
175
156
133
109
84
61
43
29
21
17
16
18
20
23
25
27
28
29
29
30
31
32
32
31
29
27
25
23
21
21
22
24
26
28
30
30
30
29
28
27
27
28
30
33
36
39
41
43
43
43
42
41
40
39
38
37
37
36
36
35
35
34
34
35
36
37
39
40
42
43
44
44
43
42
42
41
42
43
46
50
54
59
63
66
68
68
68
67
67
67
67
69
71
73
75
76
77
77
77
78
79
81
83
86
88
90
90
90
89
88
88
88
89
90
92
92
92
89
85
79
73
66
61
57
55
55
57
58
59
59
57
53
49
44
40
36
34
33
34
36
38
40
40
40
38
35
32
29
26
24
23
22
22
23
25
26
27
28
29
29
28
26
25
22
20
18
17
17
17
19
22
26
30
34
36
38
38
36
33
30
26
23
20
19
19
20
22
24
26
28
30
31
31
32
32
32
32
32
31
29
27
25
24
22
22
23
24
26
28
29
30
30
29
28
27
27
27
29
30
32
34
35
34
33
30
28
26
24
23
23
23
24
24
25
26
27
27
28
28
28
28
27
26
24
23
22
22
22
23
25
27
28
28
27
26
24
23
22
22
23
25
27
29
29
28
26
24
21
19
18
19
21
23
25
28
29
30
30
30
30
30
31
32
32
32
31
30
28
26
25
26
28
32
37
42
45
48
48
47
44
40
37
34
32
31
31
31
31
30
29
28
27
25
25
24
24
24
23
22
20
18
16
15
15
16
18
21
23
25
25
23
20
17
14
13
13
16
21
26
31
35
36
35
31
26
20
16
12
11
11
12
14
15
15
15
14
15
16
21
27
37
49
64
79
95
111
127
142
157
169
178
182
180
170
154
132
105
77
51
28
12
3
0
3
10
17
24
29
31
31
30
29
28
29
30
32
33
34
33
31
28
26
24
23
24
26
28
31
32
33
32
32
31
30
31
32
35
37
40
43
44
45
44
42
40
38
36
34
34
34
34
35
36
36
35
34
33
31
29
29
30
32
36
42
48
54
59
62
63
62
59
56
53
51
50
52
55
59
63
67
70
72
72
72
70
69
68
68
69
72
75
78
82
85
88
89
89
88
86
84
81
79
77
77
78
80
81
83
84
83
81
77
73
69
66
63
62
62
61
61
59
57
53
49
45
41
38
37
36
37
38
38
38
36
34
32
29
27
25
24
23
23
23
24
25
26
28
30
32
33
34
34
32
30
28
26
25
25
26
28
31
33
33
32
29
25
21
17
15
14
15
18
21
25
27
29
30
30
30
30
30
30
30
30
29
28
25
23
21
21
22
25
29
33
37
41
42
42
39
35
29
24
19
16
15
16
18
22
25
28
30
31
30
28
25
22
20
19
19
21
23
26
29
31
32
33
32
31
30
29
28
28
27
27
27
26
25
23
21
19
18
17
17
18
19
21
22
24
25
26
27
28
29
30
30
31
30
30
28
26
24
23
22
22
24
26
30
33
36
37
38
37
36
34
33
33
35
37
41
44
45
45
42
38
31
24
17
11
8
8
10
14
19
25
29
32
33
32
30
26
22
18
15
13
12
13
15
18
21
23
25
25
23
21
18
15
13
13
13
15
17
19
20
21
21
21
20
19
18
18
18
18
18
19
19
20
23
28
36
48
63
82
102
123
142
159
171
177
178
172
160
143
122
100
77
55
36
21
11
5
5
8
13
20
27
32
36
37
36
33
30
27
25
24
25
27
29
31
33
33
33
32
30
29
28
28
29
31
33
34
35
35
35
33
32
31
30
30
30
31
32
32
33
33
34
35
37
39
41
44
46
47
48
48
47
46
45
45
45
45
45
46
46
46
46
45
45
46
48
50
53
57
60
63
65
66
66
66
65
65
65
65
66
68
71
73
75
77
79
80
81
82
83
83
83
83
83
83
82
82
81
81
81
80
80
79
78
76
74
71
68
65
62
59
57
56
55
54
54
53
52
50
48
45
42
40
38
37
37
37
37
37
37
36
34
33
31
30
30
31
31
31
31
29
27
24
20
18
16
17
19
22
25
28
31
32
32
31
29
29
28
30
31
34
36
36
36
34
31
28
26
24
24
25
26
27
27
26
24
21
19
17
16
18
21
25
30
34
36
37
36
33
31
28
26
26
27
29
31
34
36
38
38
37
36
34
32
31
29
28
28
27
27
27
27
27
26
25
25
24
25
25
27
28
30
31
32
31
30
28
25
23
21
20
20
21
23
25
26
27
28
27
27
26
26
26
27
28
30
31
32
33
32
32
30
29
28
27
26
26
26
27
28
29
30
31
32
33
34
35
36
37
38
39
39
39
39
37
35
33
31
29
27
27
28
29
31
32
32
31
29
26
23
19
17
16
16
18
20
23
25
26
27
26
25
23
22
22
22
22
23
24
24
24
23
23
22
23
24
25
27
29
31
31
30
28
25
20
15
11
7
5
5
7
11
18
27
38
52
68
86
105
125
143
160
172
180
182
177
166
150
130
107
84
63
44
29
19
12
10
10
14
18
24
29
32
35
35
33
30
26
23
20
18
19
21
24
28
31
33
33
32
30
27
25
25
26
28
32
36
39
40
40
38
36
32
30
28
28
30
33
35
38
39
38
36
34
31
30
30
32
35
39
43
47
50
50
50
48
46
44
42
42
42
43
45
46
47
47
48
48
49
51
53
56
59
62
65
67
68
68
68
69
70
71
73
75
77
78
79
79
78
78
77
77
79
81
83
85
86
86
84
80
75
69
64
60
59
59
62
65
68
70
70
68
64
57
51
44
39
36
34
34
35
35
35
35
33
31
29
28
27
26
27
28
30
31
31
31
31
30
29
28
26
25
24
24
24
24
24
24
25
25
24
23
22
21
19
19
19
20
23
25
28
30
32
31
30
28
25
23
22
23
25
28
31
33
35
34
33
30
27
24
23
23
24
27
29
31
31
31
30
28
27
26
27
28
31
33
35
35
34
31
28
25
23
23
25
28
32
36
39
40
39
37
34
30
27
24
23
24
25
26
27
28
28
28
27
27
27
27
27
27
28
27
27
27
26
26
26
26
27
28
29
30
30
30
30
29
29
29
29
29
30
30
30
30
29
29
27
26
26
25
26
27
28
30
32
34
35
35
35
34
34
33
34
35
38
40
43
45
46
46
45
43
40
38
35
34
33
32
31
30
29
26
24
21
20
19
20
22
25
27
29
30
30
28
26
24
22
22
24
26
28
31
32
31
29
27
23
20
18
17
18
20
22
25
27
29
29
27
25
22
18
15
12
10
9
10
11
13
16
20
23
27
32
39
47
59
73
90
110
130
149
166
178
184
184
177
164
146
126
104
82
61
44
29
19
12
9
10
13
19
25
30
35
37
38
37
35
32
30
28
28
30
31
34
35
36
35
34
31
28
25
23
22
22
23
24
26
28
29
31
31
31
31
31
30
30
30
31
33
36
39
42
44
46
47
47
46
44
41
38
36
35
34
34
36
38
40
42
45
46
48
49
49
49
50
50
50
51
52
53
55
57
60
62
64
66
68
69
69
70
71
72
74
76
79
81
84
85
85
84
83
81
80
79
79
80
81
82
82
82
80
78
74
71
69
67
66
67
67
68
67
65
62
56
50
44
39
35
34
34
35
38
39
40
40
38
36
34
32
31
31
33
34
35
35
33
30
26
23
19
18
17
19
22
25
28
31
32
32
31
29
27
25
24
23
23
24
25
26
26
26
26
26
26
26
26
26
26
27
28
28
29
29
29
29
28
27
26
24
23
22
21
20
20
20
20
21
22
24
26
29
31
34
36
37
38
38
36
35
33
31
29
28
28
28
29
30
30
30
29
28
26
23
22
21
21
22
25
28
30
33
34
34
33
31
29
27
26
25
26
28
31
33
35
35
34
31
28
24
22
20
21
22
24
25
26
26
25
23
20
18
18
19
21
25
29
33
35
35
34
31
27
23
20
19
19
21
25
28
32
35
36
35
32
29
24
20
16
15
14
16
20
24
29
33
36
38
39
38
36
34
31
30
29
28
29
30
31
32
33
33
33
32
31
30
29
28
28
29
31
34
37
39
41
42
41
38
34
29
25
22
20
21
23
27
31
35
38
39
37
35
31
26
23
20
19
18
18
18
18
18
18
18
19
21
24
27
30
33
34
33
30
26
23
19
17
17
18
21
24
26
27
28
27
25
24
22
21
21
22
24
28
33
42
53
69
88
109
131
152
169
181
186
184
175
159
140
118
96
76
59
45
35
28
24
22
22
24
27
30
33
35
36
35
33
30
26
22
20
19
19
22
25
29
33
37
39
41
41
40
40
38
37
37
36
36
37
37
37
37
36
35
34
33
32
32
32
32
32
33
33
33
34
34
34
35
36
38
39
41
43
45
46
47
48
48
48
48
48
49
50
51
53
55
57
59
61
63
64
65
65
65
64
63
63
63
64
66
68
71
74
76
78
79
79
79
79
80
82
84
87
89
91
92
91
89
87
83
80
78
77
76
76
76
76
75
73
71
68
64
61
58
56
54
53
53
52
52
51
50
47
45
42
39
36
33
31
30
30
31
33
34
35
35
34
32
29
25
22
21
20
22
24
28
32
35
37
38
37
35
33
31
29
28
28
29
30
32
33
34
34
33
32
31
29
28
26
24
23
22
21
22
23
24
26
28
29
30
30
29
29
28
28
29
30
32
34
36
37
37
37
35
34
32
30
29
29
29
29
29
30
30
30
31
31
31
32
32
33
33
34
34
34
34
33
33
32
32
32
33
34
35
36
37
38
37
35
32
28
24
21
19
19
20
23
27
30
33
34
33
32
30
28
27
27
29
32
35
37
39
40
38
36
33
30
27
25
25
25
26
28
29
29
29
28
26
25
24
24
25
27
29
32
34
36
37
36
34
32
30
27
26
25
25
26
27
29
30
32
32
32
32
31
30
29
28
27
26
26
26
27
29
32
34
37
38
39
38
37
35
34
33
34
35
38
41
44
45
46
44
41
37
33
28
25
23
22
23
25
28
31
33
35
36
35
34
32
29
26
24
22
21
21
21
21
21
21
20
19
18
18
18
20
21
24
26
27
27
25
23
20
18
17
17
19
23
26
29
31
30
26
20
14
8
4
2
4
9
18
28
39
51
64
78
93
109
126
142
157
169
176
176
169
155
136
112
88
64
44
28
17
11
8
9
12
16
19
22
24
26
27
27
27
27
26
25
25
24
24
25
26
27
28
28
28
28
27
27
26
26
27
28
30
32
33
35
35
35
34
33
32
32
33
34
36
38
39
41
41
40
39
38
37
37
37
38
39
40
41
41
40
40
39
39
40
42
45
48
51
54
55
55
54
53
51
50
50
52
55
59
64
67
70
71
71
71
69
68
68
68
70
72
74
76
78
79
79
79
80
80
81
83
84
86
86
86
85
84
82
80
77
75
74
72
70
69
67
64
62
59
57
55
53
51
49
46
44
41
38
36
34
33
33
33
34
34
35
35
35
34
34
33
33
33
33
32
31
29
27
25
24
23
23
24
25
27
29
30
29
28
25
22
20
18
17
18
19
21
23
25
26
27
26
25
24
23
23
22
22
23
24
25
27
28
29
31
31
31
30
29
28
27
26
26
27
29
31
32
33
33
31
29
26
23
20
20
20
22
25
28
31
33
33
33
32
31
30
29
29
29
28
28
27
25
23
21
19
18
18
19
21
24
27
29
31
33
33
32
31
29
27
24
22
21
20
21
22
24
26
28
30
30
30
28
26
24
22
21
21
22
24
26
28
28
28
26
23
21
19
19
20
22
24
27
29
29
28
26
23
21
20
20
21
24
28
31
33
33
31
29
25
22
19
17
17
17
19
21
23
24
25
26
27
28
29
30
30
30
29
26
23
20
18
17
18
21
25
31
36
40
42
42
40
37
34
31
29
29
30
31
33
34
35
34
32
29
27
25
24
25
27
29
30
31
31
29
27
24
21
20
19
19
19
20
21
21
21
21
20
21
21
23
24
26
27
28
27
25
22
19
16
15
15
17
20
23
27
30
31
31
29
26
22
18
15
13
12
11
13
15
18
23
29
37
48
62
78
96
117
138
157
174
186
192
190
182
166
145
120
95
71
50
36
26
23
24
27
31
34
35
34
32
28
25
24
24
26
30
35
39
41
42
41
38
34
30
28
26
27
28
30
32
33
34
33
32
31
30
30
31
33
35
37
38
39
38
37
35
34
33
33
34
35
37
38
40
41
41
41
42
42
43
45
46
48
49
49
49
48
47
47
47
48
50
52
55
57
59
61
61
62
62
62
62
62
62
63
63
64
65
67
69
72
75
78
81
84
86
88
88
88
88
87
86
86
86
86
87
87
87
86
85
84
82
81
80
78
77
76
73
70
66
62
57
53
49
47
46
46
47
48
48
48
46
43
40
38
36
35
35
36
36
36
35
32
30
27
25
25
26
29
33
36
39
41
40
38
34
31
28
27
27
28
29
31
32
32
31
29
28
27
27
28
30
32
33
33
32
30
28
27
27
28
31
34
37
40
40
40
37
35
32
31
31
32
35
38
40
41
40
38
34
30
27
24
24
25
28
31
35
39
41
43
43
42
41
39
37
36
34
33
32
32
32
33
34
35
36
37
38
38
38
37
35
33
30
28
26
25
25
26
28
30
33
36
38
40
41
40
39
37
35
32
29
27
25
24
23
24
25
26
28
30
32
33
34
33
32
30
29
27
27
28
29
31
33
34
34
34
33
31
29
28
27
27
28
29
30
31
32
32
32
32
32
32
32
32
32
31
30
29
28
26
25
25
25
26
28
29
31
32
32
33
33
33
33
33
33
33
33
32
31
29
27
26
25
25
26
29
31
34
37
39
39
39
38
36
35
33
33
33
34
35
37
39
42
43
45
45
45
44
42
41
39
38
37
37
37
37
37
36
36
35
33
32
30
29
28
27
27
26
26
26
26
27
28
29
31
32
34
34
33
32
29
26
24
21
20
19
19
20
21
22
23
23
24
24
25
26
27
28
29
28
27
23
19
14
9
5
3
4
7
13
21
31
42
55
68
83
99
117
135
153
170
184
193
197
194
183
166
143
117
90
65
43
26
16
10
10
13
17
22
26
29
31
31
31
31
30
30
30
29
29
27
26
25
24
24
25
26
28
30
32
32
31
30
29
28
28
28
30
32
34
35
36
35
33
30
27
24
23
22
23
25
27
30
33
35
37
39
41
43
45
46
47
48
47
46
44
41
40
38
38
39
42
45
48
51
53
54
53
52
51
50
49
50
51
54
58
63
68
72
75
77
78
78
77
76
76
77
79
81
85
88
91
92
92
90
86
82
77
74
72
73
75
78
81
83
84
81
77
71
64
58
53
51
51
52
54
55
56
54
50
45
40
36
33
32
33
34
36
37
36
33
30
25
21
18
17
18
21
24
27
30
32
32
31
29
27
24
23
22
22
23
24
25
26
26
26
26
25
24
22
21
21
21
22
23
25
27
29
30
30
29
27
24
21
18
17
16
17
18
20
22
23
24
25
24
24
24
25
26
27
28
29
29
29
29
28
28
28
28
29
30
31
31
31
31
30
29
28
26
25
24
22
20
18
16
15
15
17
19
23
27
31
34
36
35
33
30
26
22
20
18
19
20
22
23
24
24
23
22
20
18
18
18
20
22
24
26
26
25
23
20
18
16
15
15
17
19
22
24
25
25
24
23
22
22
22
23
24
25
26
26
25
24
22
20
19
19
20
21
23
25
26
27
26
25
23
22
21
21
23
25
27
29
31
30
29
27
24
23
